# Time (s),Altitude (m),Vertical velocity (m/s),Mach number (​)
0,0,0,0.013
0.011,0,0.019,0.013
0.017,0,0.121,0.013
0.023,0.001,0.274,0.013
0.028,0.003,0.464,0.013
0.033,0.006,0.682,0.013
0.038,0.01,0.913,0.013
0.043,0.016,1.161,0.013
0.048,0.022,1.421,0.014
0.053,0.03,1.685,0.014
0.058,0.038,1.957,0.014
0.063,0.049,2.233,0.015
0.068,0.06,2.508,0.015
0.073,0.073,2.792,0.016
0.078,0.087,3.072,0.016
0.082,0.103,3.354,0.017
0.087,0.12,3.644,0.017
0.092,0.138,3.929,0.018
0.097,0.157,4.215,0.019
0.102,0.178,4.502,0.019
0.107,0.201,4.796,0.02
0.111,0.225,5.084,0.021
0.116,0.25,5.373,0.021
0.121,0.276,5.663,0.022
0.126,0.304,5.953,0.023
0.131,0.334,6.243,0.023
0.136,0.365,6.54,0.024
0.14,0.397,6.832,0.025
0.145,0.431,7.123,0.025
0.15,0.465,7.415,0.026
0.155,0.502,7.708,0.027
0.16,0.539,8.001,0.028
0.164,0.579,8.294,0.028
0.169,0.619,8.588,0.029
0.174,0.661,8.882,0.03
0.179,0.704,9.176,0.031
0.184,0.749,9.471,0.031
0.188,0.795,9.766,0.032
0.193,0.843,10.061,0.033
0.198,0.892,10.357,0.034
0.203,0.942,10.653,0.035
0.208,0.994,10.95,0.035
0.212,1.047,11.247,0.036
0.217,1.102,11.544,0.037
0.222,1.158,11.842,0.038
0.227,1.216,12.14,0.039
0.232,1.275,12.438,0.04
0.236,1.335,12.737,0.04
0.241,1.397,13.036,0.041
0.246,1.46,13.335,0.042
0.251,1.525,13.635,0.043
0.256,1.591,13.935,0.044
0.26,1.659,14.236,0.044
0.265,1.728,14.536,0.045
0.27,1.798,14.838,0.046
0.275,1.869,15.133,0.047
0.279,1.942,15.435,0.048
0.284,2.017,15.737,0.049
0.289,2.093,16.039,0.049
0.294,2.171,16.342,0.05
0.299,2.25,16.646,0.051
0.303,2.331,16.949,0.052
0.308,2.411,17.247,0.053
0.313,2.495,17.551,0.054
0.318,2.58,17.856,0.055
0.323,2.666,18.161,0.056
0.327,2.754,18.466,0.056
0.332,2.843,18.772,0.057
0.337,2.932,19.072,0.058
0.342,3.025,19.378,0.059
0.346,3.118,19.685,0.06
0.351,3.213,19.992,0.061
0.356,3.31,20.299,0.062
0.361,3.406,20.601,0.063
0.366,3.506,20.909,0.063
0.37,3.607,21.217,0.064
0.375,3.71,21.526,0.065
0.38,3.811,21.829,0.066
0.385,3.917,22.138,0.067
0.389,4.024,22.448,0.068
0.394,4.133,22.758,0.069
0.399,4.24,23.062,0.069
0.404,4.352,23.373,0.07
0.409,4.465,23.684,0.071
0.413,4.577,23.989,0.072
0.418,4.693,24.301,0.073
0.423,4.81,24.613,0.074
0.428,4.926,24.919,0.075
0.432,5.047,25.232,0.076
0.437,5.169,25.545,0.076
0.442,5.289,25.852,0.077
0.447,5.414,26.166,0.078
0.451,5.541,26.479,0.079
0.456,5.666,26.787,0.08
0.461,5.795,27.102,0.081
0.466,5.926,27.417,0.082
0.47,6.055,27.725,0.083
0.475,6.189,28.041,0.084
0.48,6.325,28.356,0.084
0.485,6.459,28.666,0.085
0.49,6.597,28.983,0.086
0.494,6.734,29.293,0.087
0.499,6.875,29.61,0.088
0.504,7.015,29.921,0.089
0.509,7.16,30.239,0.09
0.513,7.305,30.557,0.091
0.518,7.45,30.869,0.092
0.523,7.599,31.187,0.093
0.528,7.746,31.5,0.093
0.532,7.898,31.819,0.094
0.537,8.048,32.132,0.095
0.542,8.203,32.452,0.096
0.547,8.357,32.766,0.097
0.551,8.515,33.087,0.098
0.556,8.674,33.408,0.099
0.561,8.832,33.722,0.1
0.566,8.995,34.044,0.101
0.57,9.155,34.359,0.102
0.575,9.321,34.682,0.103
0.58,9.485,34.998,0.104
0.585,9.65,35.314,0.105
0.589,9.82,35.637,0.106
0.594,9.989,35.954,0.107
0.599,10.162,36.278,0.107
0.604,10.333,36.595,0.108
0.608,10.51,36.92,0.109
0.613,10.684,37.238,0.11
0.618,10.863,37.563,0.111
0.623,11.041,37.881,0.112
0.627,11.223,38.207,0.113
0.632,11.404,38.526,0.114
0.637,11.585,38.846,0.115
0.642,11.773,39.172,0.116
0.646,11.958,39.492,0.117
0.651,12.148,39.82,0.118
0.656,12.336,40.14,0.119
0.66,12.525,40.461,0.12
0.665,12.72,40.789,0.121
0.67,12.913,41.111,0.121
0.675,13.111,41.44,0.122
0.679,13.306,41.762,0.123
0.684,13.503,42.084,0.124
0.689,13.706,42.414,0.125
0.694,13.906,42.737,0.126
0.698,14.108,43.06,0.127
0.703,14.315,43.391,0.128
0.708,14.52,43.714,0.129
0.713,14.731,44.046,0.13
0.717,14.938,44.37,0.131
0.722,15.148,44.695,0.132
0.727,15.363,45.027,0.133
0.732,15.576,45.352,0.134
0.736,15.789,45.677,0.135
0.741,16.005,46.003,0.136
0.746,16.226,46.336,0.137
0.75,16.445,46.663,0.138
0.755,16.665,46.989,0.139
0.76,16.891,47.323,0.14
0.765,17.115,47.651,0.14
0.769,17.339,47.978,0.141
0.774,17.57,48.313,0.142
0.779,17.798,48.641,0.143
0.784,18.028,48.969,0.144
0.788,18.259,49.298,0.145
0.793,18.496,49.634,0.146
0.798,18.73,49.963,0.147
0.802,18.966,50.292,0.148
0.807,19.203,50.622,0.149
0.812,19.447,50.959,0.15
0.817,19.687,51.289,0.151
0.821,19.929,51.62,0.152
0.826,20.172,51.95,0.153
0.831,20.417,52.281,0.154
0.836,20.669,52.62,0.155
0.84,20.917,52.951,0.156
0.845,21.167,53.283,0.157
0.85,21.418,53.615,0.158
0.854,21.676,53.954,0.159
0.859,21.93,54.287,0.16
0.864,22.186,54.619,0.161
0.869,22.444,54.952,0.162
0.873,22.703,55.286,0.163
0.878,22.963,55.619,0.164
0.883,23.231,55.96,0.165
0.887,23.495,56.294,0.166
0.892,23.76,56.628,0.167
0.897,24.027,56.963,0.168
0.902,24.296,57.298,0.169
0.906,24.566,57.633,0.17
0.911,24.843,57.975,0.171
0.916,25.117,58.31,0.171
0.92,25.392,58.646,0.172
0.925,25.668,58.982,0.173
0.93,25.946,59.318,0.174
0.935,26.226,59.655,0.175
0.939,26.507,59.991,0.176
0.944,26.796,60.335,0.177
0.949,27.08,60.673,0.178
0.953,27.366,61.01,0.179
0.958,27.653,61.347,0.18
0.963,27.943,61.685,0.181
0.968,28.233,62.023,0.182
0.972,28.526,62.362,0.183
0.977,28.819,62.7,0.184
0.982,29.115,63.039,0.185
0.986,29.412,63.378,0.186
0.991,29.717,63.724,0.187
0.996,30.017,64.064,0.188
1.001,30.319,64.403,0.189
1.005,30.623,64.743,0.19
1.01,30.928,65.083,0.191
1.015,31.234,65.423,0.192
1.019,31.543,65.764,0.193
1.024,31.853,66.105,0.194
1.029,32.164,66.445,0.195
1.033,32.477,66.787,0.196
1.038,32.792,67.128,0.197
1.043,33.108,67.469,0.198
1.048,33.426,67.811,0.199
1.052,33.746,68.153,0.2
1.057,34.067,68.495,0.201
1.062,34.39,68.838,0.202
1.066,34.714,69.18,0.203
1.071,35.04,69.523,0.204
1.076,35.367,69.866,0.205
1.08,35.697,70.209,0.206
1.085,36.027,70.552,0.207
1.09,36.36,70.896,0.208
1.095,36.694,71.239,0.209
1.099,37.029,71.583,0.21
1.104,37.367,71.927,0.211
1.109,37.706,72.272,0.212
1.113,38.046,72.616,0.213
1.118,38.388,72.961,0.214
1.123,38.732,73.306,0.215
1.127,39.077,73.651,0.216
1.132,39.424,73.996,0.217
1.137,39.773,74.341,0.219
1.142,40.123,74.687,0.22
1.146,40.475,75.033,0.221
1.151,40.828,75.378,0.222
1.156,41.183,75.724,0.223
1.16,41.54,76.071,0.224
1.165,41.898,76.417,0.225
1.17,42.258,76.764,0.226
1.174,42.62,77.11,0.227
1.179,42.983,77.457,0.228
1.184,43.348,77.804,0.229
1.189,43.715,78.152,0.23
1.193,44.083,78.499,0.231
1.198,44.453,78.846,0.232
1.203,44.824,79.194,0.233
1.207,45.197,79.542,0.234
1.212,45.564,79.883,0.235
1.217,45.94,80.231,0.236
1.221,46.318,80.579,0.237
1.226,46.697,80.927,0.238
1.231,47.078,81.276,0.239
1.235,47.461,81.625,0.24
1.24,47.846,81.973,0.241
1.245,48.232,82.323,0.242
1.25,48.62,82.672,0.243
1.254,49.009,83.021,0.244
1.259,49.4,83.37,0.245
1.264,49.784,83.712,0.246
1.268,50.179,84.062,0.247
1.273,50.574,84.412,0.248
1.278,50.972,84.762,0.249
1.282,51.371,85.112,0.25
1.287,51.772,85.462,0.251
1.292,52.175,85.812,0.252
1.296,52.579,86.163,0.253
1.301,52.976,86.506,0.254
1.306,53.383,86.857,0.255
1.31,53.792,87.208,0.256
1.315,54.203,87.559,0.257
1.32,54.615,87.91,0.258
1.325,55.029,88.261,0.259
1.329,55.445,88.612,0.26
1.334,55.853,88.956,0.261
1.339,56.272,89.308,0.263
1.343,56.693,89.659,0.264
1.348,57.115,90.011,0.265
1.353,57.539,90.363,0.266
1.357,57.965,90.715,0.267
1.362,58.392,91.067,0.268
1.367,58.811,91.412,0.269
1.371,59.242,91.764,0.27
1.376,59.674,92.117,0.271
1.381,60.108,92.469,0.272
1.385,60.543,92.822,0.273
1.39,60.98,93.175,0.274
1.395,61.41,93.52,0.275
1.399,61.85,93.873,0.276
1.404,62.292,94.226,0.277
1.409,62.736,94.579,0.278
1.414,63.181,94.933,0.279
1.418,63.619,95.279,0.28
1.423,64.067,95.632,0.281
1.428,64.518,95.986,0.282
1.432,64.97,96.339,0.283
1.437,65.423,96.693,0.285
1.442,65.879,97.047,0.286
1.446,66.326,97.394,0.287
1.451,66.784,97.748,0.288
1.456,67.245,98.102,0.289
1.46,67.706,98.456,0.29
1.465,68.17,98.811,0.291
1.47,68.625,99.158,0.292
1.474,69.092,99.513,0.293
1.479,69.561,99.867,0.294
1.484,70.031,100.222,0.295
1.488,70.493,100.57,0.296
1.493,70.966,100.925,0.297
1.498,71.442,101.28,0.298
1.502,71.918,101.635,0.299
1.507,72.397,101.99,0.3
1.512,72.867,102.338,0.301
1.516,73.349,102.694,0.302
1.521,73.832,103.05,0.304
1.526,74.317,103.405,0.305
1.53,74.794,103.754,0.306
1.535,75.282,104.11,0.307
1.54,75.772,104.466,0.308
1.545,76.264,104.822,0.309
1.549,76.747,105.17,0.31
1.554,77.242,105.527,0.311
1.559,77.739,105.883,0.312
1.563,78.238,106.24,0.313
1.568,78.738,106.597,0.314
1.573,79.229,106.946,0.315
1.577,79.732,107.303,0.316
1.582,80.238,107.66,0.317
1.587,80.744,108.017,0.318
1.591,81.242,108.367,0.319
1.596,81.752,108.724,0.32
1.601,82.264,109.081,0.321
1.605,82.778,109.439,0.323
1.61,83.282,109.789,0.324
1.615,83.799,110.147,0.325
1.619,84.317,110.505,0.326
1.624,84.826,110.855,0.327
1.629,85.348,111.213,0.328
1.633,85.872,111.572,0.329
1.638,86.397,111.93,0.33
1.643,86.913,112.281,0.331
1.647,87.441,112.64,0.332
1.652,87.972,112.999,0.333
1.657,88.503,113.358,0.335
1.661,89.026,113.71,0.336
1.666,89.561,114.069,0.337
1.671,90.098,114.429,0.338
1.675,90.637,114.788,0.339
1.68,91.165,115.14,0.34
1.685,91.707,115.5,0.341
1.689,92.251,115.86,0.342
1.694,92.785,116.213,0.343
1.699,93.332,116.573,0.344
1.703,93.881,116.933,0.345
1.708,94.431,117.294,0.346
1.713,94.972,117.647,0.347
1.717,95.525,118.008,0.348
1.722,96.081,118.369,0.35
1.727,96.626,118.722,0.351
1.731,97.185,119.083,0.352
1.736,97.746,119.445,0.353
1.741,98.308,119.806,0.354
1.745,98.86,120.161,0.355
1.75,99.425,120.522,0.356
1.755,99.993,120.884,0.357
1.759,100.549,121.239,0.358
1.764,101.12,121.601,0.359
1.769,101.693,121.964,0.36
1.774,102.267,122.327,0.361
1.778,102.83,122.682,0.362
1.783,103.408,123.045,0.363
1.788,103.987,123.408,0.364
1.792,104.555,123.763,0.366
1.797,105.138,124.127,0.367
1.802,105.722,124.49,0.368
1.806,106.295,124.846,0.369
1.811,106.883,125.21,0.37
1.816,107.472,125.574,0.371
1.82,108.064,125.939,0.372
1.825,108.644,126.295,0.373
1.83,109.238,126.66,0.374
1.834,109.834,127.025,0.375
1.839,110.419,127.382,0.376
1.844,111.019,127.747,0.378
1.848,111.62,128.113,0.379
1.853,112.21,128.47,0.38
1.858,112.815,128.836,0.381
1.862,113.421,129.202,0.382
1.867,114.017,129.56,0.383
1.872,114.626,129.926,0.384
1.876,115.238,130.293,0.385
1.881,115.851,130.659,0.386
1.886,116.453,131.018,0.387
1.89,117.07,131.385,0.388
1.895,117.688,131.752,0.389
1.9,118.295,132.112,0.39
1.904,118.917,132.479,0.392
1.909,119.54,132.847,0.393
1.914,120.152,133.206,0.394
1.918,120.779,133.574,0.395
1.923,121.408,133.942,0.396
1.928,122.025,134.303,0.397
1.932,122.657,134.671,0.398
1.937,123.291,135.04,0.399
1.942,123.926,135.408,0.4
1.946,124.55,135.769,0.401
1.951,125.189,136.138,0.402
1.956,125.83,136.508,0.404
1.96,126.458,136.869,0.405
1.965,127.102,137.239,0.406
1.97,127.748,137.608,0.407
1.974,128.382,137.97,0.408
1.979,129.032,138.34,0.409
1.984,129.683,138.71,0.41
1.988,130.322,139.073,0.411
1.993,130.976,139.443,0.412
1.998,131.632,139.814,0.413
2.002,132.276,140.177,0.414
2.007,132.936,140.548,0.416
2.012,133.597,140.919,0.417
2.016,134.261,141.29,0.418
2.021,134.911,141.653,0.419
2.026,135.578,142.025,0.42
2.03,136.246,142.396,0.421
2.035,136.902,142.76,0.422
2.04,137.574,143.132,0.423
2.044,138.248,143.503,0.424
2.049,138.909,143.868,0.426
2.054,139.586,144.24,0.427
2.058,140.264,144.612,0.428
2.063,140.931,144.977,0.429
2.068,141.613,145.349,0.43
2.072,142.297,145.722,0.431
2.077,142.983,146.094,0.432
2.082,143.655,146.459,0.433
2.086,144.345,146.832,0.434
2.091,145.036,147.205,0.435
2.096,145.714,147.57,0.436
2.1,146.408,147.944,0.438
2.105,147.104,148.317,0.439
2.11,147.787,148.682,0.44
2.114,148.487,149.056,0.441
2.119,149.189,149.429,0.442
2.124,149.877,149.795,0.443
2.128,150.582,150.169,0.444
2.133,151.288,150.542,0.445
2.138,151.997,150.916,0.446
2.142,152.692,151.282,0.447
2.147,153.404,151.656,0.449
2.152,154.117,152.03,0.45
2.156,154.818,152.396,0.451
2.161,155.535,152.77,0.452
2.166,156.254,153.144,0.453
2.17,156.959,153.51,0.454
2.175,157.681,153.884,0.455
2.18,158.405,154.258,0.456
2.184,159.131,154.632,0.457
2.189,159.843,154.999,0.458
2.194,160.573,155.373,0.46
2.198,161.304,155.747,0.461
2.203,162.021,156.113,0.462
2.208,162.756,156.488,0.463
2.212,163.492,156.862,0.464
2.217,164.23,157.236,0.465
2.222,164.955,157.602,0.466
2.226,165.696,157.977,0.467
2.231,166.439,158.351,0.468
2.236,167.169,158.717,0.469
2.24,167.916,159.091,0.47
2.245,168.664,159.465,0.472
2.25,169.415,159.839,0.473
2.254,170.151,160.205,0.474
2.259,170.905,160.579,0.475
2.264,171.66,160.953,0.476
2.268,172.401,161.319,0.477
2.273,173.16,161.693,0.478
2.278,173.921,162.067,0.479
2.283,174.684,162.441,0.48
2.287,175.432,162.807,0.481
2.292,176.198,163.181,0.483
2.297,176.966,163.554,0.484
2.301,177.735,163.928,0.485
2.306,178.49,164.293,0.486
2.311,179.263,164.667,0.487
2.315,180.038,165.04,0.488
2.32,180.798,165.405,0.489
2.325,181.576,165.779,0.49
2.329,182.357,166.152,0.491
2.334,183.138,166.525,0.492
2.339,183.905,166.89,0.494
2.343,184.69,167.263,0.495
2.348,185.477,167.635,0.496
2.353,186.266,168.008,0.497
2.357,187.04,168.373,0.498
2.362,187.832,168.745,0.499
2.367,188.626,169.117,0.5
2.371,189.422,169.49,0.501
2.376,190.202,169.854,0.502
2.381,191.001,170.226,0.504
2.385,191.802,170.598,0.505
2.39,192.605,170.97,0.506
2.395,193.392,171.334,0.507
2.399,194.199,171.705,0.508
2.404,195.006,172.077,0.509
2.409,195.816,172.448,0.51
2.413,196.61,172.812,0.511
2.418,197.423,173.183,0.512
2.423,198.238,173.554,0.514
2.427,199.055,173.925,0.515
2.432,199.856,174.288,0.516
2.437,200.676,174.659,0.517
2.441,201.497,175.029,0.518
2.446,202.321,175.4,0.519
2.451,203.146,175.77,0.52
2.455,203.955,176.132,0.521
2.46,204.784,176.503,0.523
2.465,205.615,176.873,0.524
2.47,206.447,177.243,0.525
2.474,207.281,177.612,0.526
2.479,208.099,177.974,0.527
2.484,208.936,178.344,0.528
2.488,209.775,178.713,0.529
2.493,210.616,179.082,0.53
2.498,211.44,179.443,0.531
2.502,212.285,179.812,0.532
2.507,213.131,180.181,0.534
2.512,213.978,180.55,0.535
2.516,214.828,180.919,0.536
2.521,215.661,181.279,0.537
2.526,216.514,181.648,0.538
2.53,217.368,182.016,0.539
2.535,218.225,182.384,0.54
2.54,219.083,182.752,0.541
2.544,219.943,183.12,0.542
2.549,220.786,183.48,0.543
2.554,221.649,183.848,0.545
2.558,222.514,184.216,0.546
2.563,223.381,184.583,0.547
2.568,224.249,184.951,0.548
2.572,225.101,185.31,0.549
2.577,225.972,185.678,0.55
2.582,226.846,186.045,0.551
2.587,227.721,186.412,0.552
2.591,228.598,186.78,0.553
2.596,229.477,187.147,0.555
2.601,230.357,187.514,0.556
2.605,231.221,187.873,0.557
2.61,232.105,188.24,0.558
2.615,232.99,188.607,0.559
2.619,233.878,188.974,0.56
2.624,234.767,189.341,0.561
2.629,235.657,189.708,0.562
2.633,236.531,190.067,0.563
2.638,237.425,190.434,0.565
2.643,238.321,190.801,0.566
2.647,239.219,191.168,0.567
2.652,240.118,191.535,0.568
2.657,241.019,191.901,0.569
2.662,241.922,192.268,0.57
2.666,242.826,192.635,0.571
2.671,243.713,192.994,0.572
2.676,244.621,193.361,0.573
2.68,245.531,193.728,0.575
2.685,246.442,194.094,0.576
2.69,247.355,194.461,0.577
2.694,248.27,194.828,0.578
2.699,249.187,195.194,0.579
2.704,250.105,195.561,0.58
2.708,251.025,195.927,0.581
2.713,251.947,196.294,0.582
2.718,252.85,196.653,0.583
2.722,253.776,197.019,0.584
2.727,254.702,197.386,0.586
2.732,255.631,197.752,0.587
2.737,256.561,198.119,0.588
2.741,257.493,198.485,0.589
2.746,258.427,198.851,0.59
2.751,259.363,199.218,0.591
2.755,260.3,199.584,0.592
2.76,261.239,199.95,0.593
2.765,262.179,200.317,0.594
2.769,263.122,200.683,0.595
2.774,264.066,201.049,0.597
2.779,264.991,201.408,0.598
2.783,265.939,201.774,0.599
2.788,266.888,202.14,0.6
2.793,267.839,202.506,0.601
2.798,268.792,202.872,0.602
2.802,269.746,203.238,0.603
2.807,270.702,203.604,0.604
2.812,271.66,203.97,0.605
2.816,272.619,204.336,0.606
2.821,273.581,204.702,0.608
2.826,274.544,205.067,0.609
2.83,275.508,205.433,0.61
2.835,276.475,205.798,0.611
2.84,277.443,206.164,0.612
2.845,278.413,206.529,0.613
2.849,279.384,206.894,0.614
2.854,280.357,207.259,0.615
2.859,281.332,207.624,0.616
2.863,282.309,207.989,0.617
2.868,283.287,208.353,0.618
2.873,284.268,208.718,0.619
2.877,285.249,209.082,0.62
2.882,286.233,209.447,0.622
2.887,287.218,209.811,0.623
2.892,288.205,210.175,0.624
2.896,289.194,210.538,0.625
2.901,290.184,210.902,0.626
2.906,291.176,211.266,0.627
2.91,292.17,211.629,0.628
2.915,293.166,211.992,0.629
2.92,294.163,212.355,0.63
2.924,295.162,212.718,0.631
2.929,296.162,213.081,0.632
2.934,297.186,213.451,0.634
2.939,298.19,213.814,0.635
2.943,299.196,214.176,0.636
2.948,300.203,214.538,0.637
2.953,301.213,214.9,0.638
2.957,302.223,215.261,0.639
2.962,303.236,215.623,0.64
2.967,304.25,215.984,0.641
2.972,305.266,216.345,0.642
2.976,306.284,216.705,0.643
2.981,307.303,217.066,0.644
2.986,308.324,217.426,0.645
2.99,309.369,217.793,0.647
2.995,310.393,218.153,0.648
3,311.419,218.513,0.649
3.005,312.447,218.872,0.65
3.009,313.477,219.231,0.651
3.014,314.508,219.589,0.652
3.019,315.541,219.948,0.653
3.023,316.576,220.306,0.654
3.028,317.612,220.664,0.655
3.033,318.672,221.029,0.656
3.038,319.712,221.387,0.657
3.042,320.753,221.744,0.658
3.047,321.796,222.101,0.659
3.052,322.841,222.457,0.661
3.056,323.887,222.814,0.662
3.061,324.957,223.177,0.663
3.066,326.007,223.533,0.664
3.071,327.059,223.889,0.665
3.075,328.112,224.244,0.666
3.08,329.167,224.599,0.667
3.085,330.223,224.954,0.668
3.089,331.304,225.316,0.669
3.094,332.364,225.67,0.67
3.099,333.425,226.024,0.671
3.104,334.488,226.377,0.672
3.108,335.553,226.731,0.673
3.113,336.642,227.091,0.674
3.118,337.71,227.444,0.676
3.122,338.78,227.797,0.677
3.127,339.852,228.149,0.678
3.132,340.925,228.501,0.679
3.137,342.022,228.861,0.68
3.141,343.099,229.213,0.681
3.146,344.177,229.564,0.682
3.151,345.257,229.915,0.683
3.156,346.361,230.274,0.684
3.16,347.444,230.624,0.685
3.165,348.529,230.975,0.686
3.17,349.615,231.325,0.687
3.174,350.727,231.683,0.688
3.179,351.816,232.033,0.689
3.184,352.908,232.382,0.69
3.189,354.024,232.739,0.692
3.193,355.119,233.089,0.693
3.198,356.215,233.438,0.694
3.203,357.313,233.787,0.695
3.208,358.436,234.143,0.696
3.212,359.537,234.491,0.697
3.217,360.64,234.84,0.698
3.222,361.768,235.195,0.699
3.226,362.875,235.544,0.7
3.231,363.983,235.891,0.701
3.236,365.116,236.247,0.702
3.241,366.227,236.594,0.703
3.245,367.34,236.941,0.704
3.25,368.478,237.296,0.705
3.255,369.594,237.643,0.706
3.26,370.712,237.99,0.708
3.264,371.855,238.344,0.709
3.269,372.976,238.691,0.71
3.274,374.122,239.045,0.711
3.279,375.247,239.391,0.712
3.283,376.373,239.737,0.713
3.288,377.524,240.091,0.714
3.293,378.654,240.437,0.715
3.298,379.809,240.79,0.716
3.302,380.941,241.135,0.717
3.307,382.075,241.481,0.718
3.312,383.235,241.833,0.719
3.316,384.373,242.178,0.72
3.321,385.536,242.53,0.721
3.326,386.677,242.875,0.722
3.331,387.819,243.219,0.723
3.335,388.987,243.571,0.725
3.34,390.133,243.915,0.726
3.345,391.304,244.266,0.727
3.35,392.453,244.609,0.728
3.354,393.628,244.96,0.729
3.359,394.78,245.303,0.73
3.364,395.959,245.653,0.731
3.369,397.114,245.996,0.732
3.373,398.296,246.345,0.733
3.378,399.454,246.687,0.734
3.383,400.639,247.036,0.735
3.388,401.801,247.378,0.736
3.392,402.989,247.726,0.737
3.397,404.154,248.067,0.738
3.402,405.346,248.415,0.739
3.407,406.514,248.755,0.74
3.411,407.709,249.103,0.741
3.416,408.881,249.442,0.742
3.421,410.079,249.789,0.743
3.426,411.254,250.128,0.744
3.43,412.455,250.474,0.745
