# Time (s),Altitude (m),Vertical velocity (m/s),Mach number (​)
0,0,0,0.011
0.011,0,0.019,0.011
0.017,0,0.121,0.011
0.023,0.001,0.273,0.011
0.028,0.003,0.464,0.011
0.033,0.006,0.681,0.011
0.038,0.01,0.912,0.011
0.043,0.016,1.16,0.012
0.048,0.022,1.42,0.012
0.053,0.03,1.684,0.012
0.058,0.038,1.956,0.013
0.063,0.049,2.232,0.013
0.068,0.06,2.507,0.014
0.073,0.073,2.791,0.014
0.078,0.087,3.071,0.015
0.082,0.103,3.353,0.015
0.087,0.12,3.643,0.016
0.092,0.138,3.928,0.017
0.097,0.157,4.214,0.017
0.102,0.178,4.501,0.018
0.107,0.201,4.794,0.019
0.111,0.225,5.083,0.019
0.116,0.25,5.371,0.02
0.121,0.276,5.661,0.021
0.126,0.304,5.951,0.022
0.131,0.334,6.241,0.022
0.136,0.365,6.538,0.023
0.14,0.397,6.829,0.024
0.145,0.43,7.121,0.025
0.15,0.465,7.413,0.025
0.155,0.502,7.705,0.026
0.16,0.539,7.998,0.027
0.164,0.578,8.291,0.028
0.169,0.619,8.585,0.029
0.174,0.661,8.879,0.029
0.179,0.704,9.173,0.03
0.184,0.749,9.468,0.031
0.188,0.795,9.762,0.032
0.193,0.843,10.058,0.033
0.198,0.891,10.354,0.033
0.203,0.942,10.65,0.034
0.208,0.994,10.946,0.035
0.212,1.047,11.243,0.036
0.217,1.102,11.54,0.037
0.222,1.158,11.838,0.038
0.227,1.215,12.136,0.039
0.232,1.274,12.434,0.039
0.236,1.335,12.733,0.04
0.241,1.397,13.032,0.041
0.246,1.46,13.331,0.042
0.251,1.524,13.631,0.043
0.256,1.591,13.931,0.044
0.26,1.658,14.231,0.045
0.265,1.727,14.532,0.045
0.27,1.798,14.833,0.046
0.275,1.868,15.128,0.047
0.279,1.941,15.43,0.048
0.284,2.016,15.732,0.049
0.289,2.093,16.034,0.05
0.294,2.17,16.337,0.05
0.299,2.249,16.64,0.051
0.303,2.33,16.944,0.052
0.308,2.41,17.241,0.053
0.313,2.494,17.546,0.054
0.318,2.579,17.85,0.055
0.323,2.665,18.155,0.056
0.327,2.753,18.46,0.056
0.332,2.842,18.766,0.057
0.337,2.931,19.066,0.058
0.342,3.024,19.372,0.059
0.346,3.117,19.679,0.06
0.351,3.212,19.986,0.061
0.356,3.309,20.293,0.062
0.361,3.405,20.594,0.063
0.366,3.505,20.902,0.063
0.37,3.606,21.211,0.064
0.375,3.708,21.519,0.065
0.38,3.81,21.822,0.066
0.385,3.916,22.131,0.067
0.389,4.023,22.441,0.068
0.394,4.131,22.751,0.069
0.399,4.239,23.055,0.07
0.404,4.35,23.366,0.07
0.409,4.463,23.677,0.071
0.413,4.575,23.982,0.072
0.418,4.691,24.293,0.073
0.423,4.808,24.605,0.074
0.428,4.925,24.911,0.075
0.432,5.045,25.224,0.076
0.437,5.167,25.537,0.077
0.442,5.288,25.844,0.077
0.447,5.412,26.157,0.078
0.451,5.539,26.471,0.079
0.456,5.664,26.779,0.08
0.461,5.793,27.093,0.081
0.466,5.924,27.408,0.082
0.47,6.053,27.716,0.083
0.475,6.187,28.032,0.084
0.48,6.323,28.347,0.084
0.485,6.457,28.657,0.085
0.49,6.595,28.973,0.086
0.494,6.732,29.283,0.087
0.499,6.873,29.6,0.088
0.504,7.013,29.911,0.089
0.509,7.157,30.229,0.09
0.513,7.303,30.547,0.091
0.518,7.447,30.858,0.092
0.523,7.596,31.177,0.093
0.528,7.744,31.489,0.093
0.532,7.895,31.808,0.094
0.537,8.046,32.121,0.095
0.542,8.201,32.441,0.096
0.547,8.354,32.755,0.097
0.551,8.512,33.076,0.098
0.556,8.671,33.397,0.099
0.561,8.829,33.711,0.1
0.566,8.992,34.033,0.101
0.57,9.152,34.348,0.102
0.575,9.318,34.67,0.103
0.58,9.482,34.986,0.103
0.585,9.647,35.302,0.104
0.589,9.817,35.625,0.105
0.594,9.985,35.942,0.106
0.599,10.159,36.265,0.107
0.604,10.33,36.583,0.108
0.608,10.506,36.907,0.109
0.613,10.68,37.225,0.11
0.618,10.86,37.55,0.111
0.623,11.037,37.868,0.112
0.627,11.22,38.194,0.113
0.632,11.4,38.513,0.114
0.637,11.582,38.832,0.115
0.642,11.769,39.159,0.116
0.646,11.954,39.479,0.117
0.651,12.144,39.806,0.118
0.656,12.332,40.126,0.118
0.66,12.521,40.447,0.119
0.665,12.716,40.775,0.12
0.67,12.908,41.096,0.121
0.675,13.106,41.425,0.122
0.679,13.302,41.747,0.123
0.684,13.499,42.069,0.124
0.689,13.702,42.399,0.125
0.694,13.902,42.722,0.126
0.698,14.103,43.045,0.127
0.703,14.311,43.375,0.128
0.708,14.515,43.699,0.129
0.713,14.726,44.03,0.13
0.717,14.933,44.354,0.131
0.722,15.143,44.679,0.132
0.727,15.358,45.01,0.133
0.732,15.57,45.336,0.134
0.736,15.784,45.661,0.135
0.741,15.999,45.987,0.136
0.746,16.221,46.32,0.136
0.75,16.439,46.646,0.137
0.755,16.659,46.972,0.138
0.76,16.886,47.306,0.139
0.765,17.109,47.633,0.14
0.769,17.334,47.961,0.141
0.774,17.565,48.295,0.142
0.779,17.792,48.623,0.143
0.784,18.022,48.951,0.144
0.788,18.252,49.28,0.145
0.793,18.49,49.616,0.146
0.798,18.724,49.945,0.147
0.802,18.959,50.274,0.148
0.807,19.196,50.604,0.149
0.812,19.44,50.94,0.15
0.817,19.68,51.27,0.151
0.821,19.922,51.601,0.152
0.826,20.165,51.931,0.153
0.831,20.41,52.262,0.154
0.836,20.662,52.6,0.155
0.84,20.91,52.932,0.156
0.845,21.159,53.263,0.157
0.85,21.41,53.595,0.158
0.854,21.669,53.934,0.159
0.859,21.923,54.267,0.16
0.864,22.179,54.599,0.161
0.869,22.436,54.932,0.162
0.873,22.695,55.266,0.163
0.878,22.956,55.599,0.164
0.883,23.223,55.94,0.165
0.887,23.487,56.274,0.166
0.892,23.752,56.608,0.167
0.897,24.019,56.942,0.168
0.902,24.287,57.277,0.169
0.906,24.557,57.612,0.17
0.911,24.835,57.954,0.171
0.916,25.108,58.289,0.172
0.92,25.383,58.625,0.172
0.925,25.659,58.961,0.173
0.93,25.937,59.297,0.174
0.935,26.216,59.633,0.175
0.939,26.498,59.97,0.176
0.944,26.786,60.314,0.177
0.949,27.07,60.651,0.178
0.953,27.356,60.988,0.179
0.958,27.644,61.325,0.18
0.963,27.933,61.663,0.181
0.968,28.223,62.001,0.182
0.972,28.516,62.339,0.183
0.977,28.809,62.677,0.184
0.982,29.105,63.016,0.185
0.986,29.402,63.355,0.186
0.991,29.707,63.701,0.187
0.996,30.007,64.041,0.188
1.001,30.309,64.38,0.189
1.005,30.612,64.72,0.19
1.01,30.917,65.06,0.191
1.015,31.224,65.4,0.192
1.019,31.532,65.74,0.193
1.024,31.842,66.081,0.194
1.029,32.153,66.422,0.195
1.033,32.466,66.763,0.196
1.038,32.78,67.104,0.197
1.043,33.097,67.445,0.198
1.048,33.414,67.787,0.199
1.052,33.734,68.129,0.2
1.057,34.055,68.471,0.201
1.062,34.377,68.813,0.202
1.066,34.702,69.155,0.203
1.071,35.028,69.498,0.204
1.076,35.355,69.841,0.205
1.08,35.684,70.184,0.206
1.085,36.015,70.527,0.207
1.09,36.347,70.87,0.208
1.095,36.681,71.214,0.209
1.099,37.016,71.558,0.21
1.104,37.354,71.902,0.211
1.109,37.692,72.246,0.212
1.113,38.033,72.59,0.213
1.118,38.375,72.935,0.214
1.123,38.718,73.279,0.215
1.127,39.063,73.624,0.216
1.132,39.41,73.969,0.217
1.137,39.759,74.315,0.218
1.142,40.109,74.66,0.22
1.146,40.461,75.006,0.221
1.151,40.814,75.352,0.222
1.156,41.169,75.697,0.223
1.16,41.525,76.044,0.224
1.165,41.884,76.39,0.225
1.17,42.244,76.736,0.226
1.174,42.605,77.083,0.227
1.179,42.968,77.43,0.228
1.184,43.333,77.777,0.229
1.189,43.699,78.124,0.23
1.193,44.067,78.471,0.231
1.198,44.437,78.819,0.232
1.203,44.808,79.166,0.233
1.207,45.181,79.514,0.234
1.212,45.548,79.855,0.235
1.217,45.924,80.203,0.236
1.221,46.301,80.551,0.237
1.226,46.681,80.899,0.238
1.231,47.062,81.248,0.239
1.235,47.445,81.596,0.24
1.24,47.829,81.945,0.241
1.245,48.215,82.294,0.242
1.25,48.602,82.643,0.243
1.254,48.992,82.993,0.244
1.259,49.383,83.342,0.245
1.264,49.767,83.684,0.246
1.268,50.161,84.034,0.247
1.273,50.557,84.384,0.248
1.278,50.954,84.733,0.249
1.282,51.353,85.083,0.25
1.287,51.754,85.434,0.251
1.292,52.156,85.784,0.252
1.296,52.56,86.134,0.253
1.301,52.957,86.478,0.254
1.306,53.365,86.828,0.256
1.31,53.773,87.179,0.257
1.315,54.184,87.53,0.258
1.32,54.596,87.881,0.259
1.325,55.01,88.232,0.26
1.329,55.426,88.584,0.261
1.334,55.834,88.927,0.262
1.339,56.253,89.279,0.263
1.343,56.673,89.631,0.264
1.348,57.095,89.982,0.265
1.353,57.519,90.334,0.266
1.357,57.944,90.686,0.267
1.362,58.371,91.038,0.268
1.367,58.791,91.383,0.269
1.371,59.221,91.735,0.27
1.376,59.653,92.088,0.271
1.381,60.087,92.44,0.272
1.385,60.522,92.793,0.273
1.39,60.959,93.145,0.274
1.395,61.388,93.491,0.275
1.399,61.829,93.844,0.276
1.404,62.271,94.197,0.277
1.409,62.714,94.55,0.278
1.414,63.159,94.903,0.279
1.418,63.597,95.249,0.28
1.423,64.045,95.602,0.282
1.428,64.495,95.955,0.283
1.432,64.947,96.309,0.284
1.437,65.401,96.663,0.285
1.442,65.856,97.016,0.286
1.446,66.303,97.363,0.287
1.451,66.761,97.717,0.288
1.456,67.221,98.071,0.289
1.46,67.683,98.425,0.29
1.465,68.147,98.779,0.291
1.47,68.602,99.126,0.292
1.474,69.069,99.481,0.293
1.479,69.537,99.835,0.294
1.484,70.007,100.19,0.295
1.488,70.469,100.537,0.296
1.493,70.942,100.892,0.297
1.498,71.417,101.247,0.298
1.502,71.894,101.602,0.3
1.507,72.372,101.957,0.301
1.512,72.842,102.304,0.302
1.516,73.324,102.66,0.303
1.521,73.807,103.015,0.304
1.526,74.292,103.37,0.305
1.53,74.768,103.718,0.306
1.535,75.257,104.074,0.307
1.54,75.746,104.43,0.308
1.545,76.238,104.786,0.309
1.549,76.721,105.134,0.31
1.554,77.216,105.49,0.311
1.559,77.713,105.846,0.312
1.563,78.211,106.203,0.313
1.568,78.711,106.559,0.314
1.573,79.202,106.908,0.315
1.577,79.705,107.264,0.316
1.582,80.21,107.621,0.318
1.587,80.717,107.977,0.319
1.591,81.214,108.327,0.32
1.596,81.724,108.683,0.321
1.601,82.236,109.04,0.322
1.605,82.749,109.398,0.323
1.61,83.253,109.747,0.324
1.615,83.77,110.104,0.325
1.619,84.288,110.462,0.326
1.624,84.797,110.812,0.327
1.629,85.319,111.169,0.328
1.633,85.842,111.527,0.329
1.638,86.367,111.885,0.33
1.643,86.883,112.235,0.331
1.647,87.411,112.593,0.332
1.652,87.941,112.951,0.333
1.657,88.473,113.309,0.334
1.661,88.995,113.66,0.336
1.666,89.53,114.019,0.337
1.671,90.067,114.377,0.338
1.675,90.605,114.736,0.339
1.68,91.134,115.087,0.34
1.685,91.675,115.446,0.341
1.689,92.219,115.805,0.342
1.694,92.752,116.157,0.343
1.699,93.299,116.516,0.344
1.703,93.848,116.876,0.345
1.708,94.398,117.236,0.346
1.713,94.938,117.588,0.347
1.717,95.491,117.948,0.348
1.722,96.047,118.308,0.35
1.727,96.592,118.661,0.351
1.731,97.15,119.021,0.352
1.736,97.71,119.382,0.353
1.741,98.272,119.742,0.354
1.745,98.824,120.095,0.355
1.75,99.389,120.456,0.356
1.755,99.956,120.818,0.357
1.759,100.513,121.171,0.358
1.764,101.083,121.533,0.359
1.769,101.655,121.894,0.36
1.774,102.229,122.256,0.361
1.778,102.792,122.61,0.362
1.783,103.369,122.972,0.364
1.788,103.948,123.335,0.365
1.792,104.516,123.689,0.366
1.797,105.098,124.052,0.367
1.802,105.682,124.415,0.368
1.806,106.255,124.77,0.369
1.811,106.843,125.133,0.37
1.816,107.432,125.496,0.371
1.82,108.022,125.86,0.372
1.825,108.602,126.215,0.373
1.83,109.196,126.579,0.374
1.834,109.792,126.943,0.375
1.839,110.377,127.299,0.376
1.844,110.976,127.664,0.377
1.848,111.577,128.028,0.379
1.853,112.167,128.385,0.38
1.858,112.771,128.75,0.381
1.862,113.377,129.115,0.382
1.867,113.972,129.472,0.383
1.872,114.581,129.837,0.384
1.876,115.192,130.203,0.385
1.881,115.805,130.568,0.386
1.886,116.406,130.926,0.387
1.89,117.022,131.292,0.388
1.895,117.64,131.659,0.389
1.9,118.247,132.017,0.39
1.904,118.868,132.384,0.391
1.909,119.491,132.75,0.393
1.914,120.103,133.109,0.394
1.918,120.729,133.476,0.395
1.923,121.357,133.844,0.396
1.928,121.974,134.203,0.397
1.932,122.606,134.571,0.398
1.937,123.239,134.939,0.399
1.942,123.874,135.307,0.4
1.946,124.497,135.667,0.401
1.951,125.136,136.035,0.402
1.956,125.776,136.404,0.403
1.96,126.404,136.765,0.405
1.965,127.048,137.134,0.406
1.97,127.693,137.503,0.407
1.974,128.327,137.864,0.408
1.979,128.975,138.233,0.409
1.984,129.626,138.603,0.41
1.988,130.264,138.965,0.411
1.993,130.918,139.335,0.412
1.998,131.574,139.705,0.413
2.002,132.218,140.067,0.414
2.007,132.877,140.437,0.415
2.012,133.538,140.808,0.417
2.016,134.2,141.179,0.418
2.021,134.851,141.541,0.419
2.026,135.517,141.912,0.42
2.03,136.185,142.284,0.421
2.035,136.84,142.647,0.422
2.04,137.511,143.018,0.423
2.044,138.184,143.39,0.424
2.049,138.845,143.754,0.425
2.054,139.521,144.125,0.426
2.058,140.2,144.497,0.428
2.063,140.865,144.862,0.429
2.068,141.547,145.234,0.43
2.072,142.23,145.606,0.431
2.077,142.916,145.979,0.432
2.082,143.588,146.343,0.433
2.086,144.277,146.716,0.434
2.091,144.967,147.089,0.435
2.096,145.644,147.454,0.436
2.1,146.338,147.827,0.437
2.105,147.034,148.2,0.439
2.11,147.717,148.565,0.44
2.114,148.416,148.939,0.441
2.119,149.117,149.312,0.442
2.124,149.804,149.678,0.443
2.128,150.509,150.052,0.444
2.133,151.215,150.425,0.445
2.138,151.923,150.799,0.446
2.142,152.617,151.165,0.448
2.147,153.328,151.539,0.449
2.152,154.042,151.913,0.45
2.156,154.741,152.28,0.451
2.161,155.458,152.654,0.452
2.166,156.176,153.028,0.453
2.17,156.881,153.394,0.454
2.175,157.603,153.769,0.455
2.18,158.326,154.143,0.456
2.184,159.052,154.518,0.458
2.189,159.763,154.884,0.459
2.194,160.492,155.259,0.46
2.198,161.223,155.633,0.461
2.203,161.94,156,0.462
2.208,162.674,156.375,0.463
2.212,163.409,156.749,0.464
2.217,164.147,157.124,0.465
2.222,164.871,157.491,0.466
2.226,165.612,157.865,0.467
2.231,166.355,158.24,0.469
2.236,167.083,158.607,0.47
2.24,167.83,158.981,0.471
2.245,168.578,159.356,0.472
2.25,169.328,159.73,0.473
2.254,170.063,160.097,0.474
2.259,170.817,160.471,0.475
2.264,171.572,160.846,0.476
2.268,172.312,161.212,0.477
2.273,173.071,161.587,0.478
2.278,173.831,161.961,0.48
2.283,174.593,162.335,0.481
2.287,175.341,162.701,0.482
2.292,176.107,163.075,0.483
2.297,176.874,163.449,0.484
2.301,177.643,163.823,0.485
2.306,178.397,164.189,0.486
2.311,179.17,164.563,0.487
2.315,179.944,164.937,0.488
2.32,180.704,165.302,0.49
2.325,181.482,165.676,0.491
2.329,182.261,166.049,0.492
2.334,183.043,166.423,0.493
2.339,183.809,166.788,0.494
2.343,184.594,167.161,0.495
2.348,185.38,167.534,0.496
2.353,186.169,167.907,0.497
2.357,186.942,168.271,0.498
2.362,187.733,168.644,0.499
2.367,188.527,169.016,0.501
2.371,189.322,169.389,0.502
2.376,190.102,169.753,0.503
2.381,190.901,170.125,0.504
2.385,191.701,170.497,0.505
2.39,192.504,170.868,0.506
2.395,193.29,171.232,0.507
2.399,194.096,171.603,0.508
2.404,194.904,171.974,0.509
2.409,195.713,172.345,0.51
2.413,196.506,172.708,0.511
2.418,197.319,173.079,0.513
2.423,198.133,173.45,0.514
2.427,198.949,173.82,0.515
2.432,199.75,174.182,0.516
2.437,200.569,174.552,0.517
2.441,201.391,174.922,0.518
2.446,202.214,175.292,0.519
2.451,203.038,175.661,0.52
2.455,203.847,176.023,0.521
2.46,204.675,176.392,0.523
2.465,205.505,176.761,0.524
2.47,206.337,177.13,0.525
2.474,207.17,177.498,0.526
2.479,207.988,177.859,0.527
2.484,208.824,178.227,0.528
2.488,209.663,178.595,0.529
2.493,210.503,178.963,0.53
2.498,211.327,179.323,0.531
2.502,212.171,179.691,0.532
2.507,213.016,180.058,0.534
2.512,213.863,180.426,0.535
2.516,214.712,180.793,0.536
2.521,215.545,181.152,0.537
2.526,216.397,181.519,0.538
2.53,217.251,181.886,0.539
2.535,218.107,182.252,0.54
2.54,218.964,182.619,0.541
2.544,219.823,182.985,0.542
2.549,220.666,183.344,0.543
2.554,221.529,183.71,0.545
2.558,222.393,184.076,0.546
2.563,223.259,184.442,0.547
2.568,224.127,184.807,0.548
2.572,224.978,185.165,0.549
2.577,225.849,185.531,0.55
2.582,226.722,185.897,0.551
2.587,227.596,186.262,0.552
2.591,228.472,186.628,0.553
2.596,229.35,186.993,0.554
2.601,230.23,187.358,0.555
2.605,231.093,187.716,0.557
2.61,231.976,188.081,0.558
2.615,232.861,188.446,0.559
2.619,233.747,188.811,0.56
2.624,234.636,189.177,0.561
2.629,235.526,189.542,0.562
2.633,236.398,189.899,0.563
2.638,237.292,190.264,0.564
2.643,238.187,190.629,0.565
2.647,239.084,190.995,0.566
2.652,239.982,191.36,0.567
2.657,240.882,191.725,0.569
2.662,241.784,192.09,0.57
2.666,242.688,192.456,0.571
2.671,243.574,192.813,0.572
2.676,244.481,193.179,0.573
2.68,245.39,193.544,0.574
2.685,246.301,193.91,0.575
2.69,247.213,194.275,0.576
2.694,248.127,194.641,0.577
2.699,249.042,195.007,0.579
2.704,249.96,195.373,0.58
2.708,250.879,195.739,0.581
2.713,251.8,196.104,0.582
2.718,252.703,196.463,0.583
2.722,253.627,196.829,0.584
2.727,254.553,197.195,0.585
2.732,255.481,197.561,0.586
2.737,256.41,197.927,0.587
2.741,257.341,198.293,0.588
2.746,258.274,198.66,0.589
2.751,259.208,199.026,0.591
2.755,260.145,199.393,0.592
2.76,261.083,199.759,0.593
2.765,262.022,200.126,0.594
2.769,262.964,200.492,0.595
2.774,263.907,200.859,0.596
2.779,264.832,201.218,0.597
2.783,265.778,201.584,0.598
2.788,266.727,201.951,0.599
2.793,267.677,202.318,0.6
2.798,268.629,202.684,0.602
2.802,269.582,203.051,0.603
2.807,270.537,203.418,0.604
2.812,271.494,203.785,0.605
2.816,272.453,204.151,0.606
2.821,273.413,204.518,0.607
2.826,274.375,204.885,0.608
2.83,275.339,205.252,0.609
2.835,276.305,205.618,0.61
2.84,277.272,205.985,0.611
2.845,278.241,206.351,0.612
2.849,279.212,206.718,0.614
2.854,280.184,207.084,0.615
2.859,281.158,207.451,0.616
2.863,282.134,207.817,0.617
2.868,283.112,208.183,0.618
2.873,284.091,208.549,0.619
2.877,285.072,208.915,0.62
2.882,286.055,209.281,0.621
2.887,287.039,209.647,0.622
2.892,288.025,210.012,0.623
2.896,289.013,210.378,0.624
2.901,290.003,210.743,0.626
2.906,290.994,211.109,0.627
2.91,291.987,211.474,0.628
2.915,292.982,211.839,0.629
2.92,293.979,212.203,0.63
2.924,294.977,212.568,0.631
2.929,295.977,212.932,0.632
2.934,297,213.304,0.633
2.939,298.003,213.668,0.634
2.943,299.008,214.032,0.635
2.948,300.015,214.395,0.636
2.953,301.024,214.758,0.637
2.957,302.034,215.121,0.639
2.962,303.046,215.484,0.64
2.967,304.059,215.846,0.641
2.972,305.075,216.208,0.642
2.976,306.092,216.57,0.643
2.981,307.11,216.931,0.644
2.986,308.131,217.293,0.645
2.99,309.175,217.661,0.646
2.995,310.199,218.022,0.647
3,311.224,218.382,0.648
3.005,312.251,218.742,0.649
3.009,313.28,219.101,0.65
3.014,314.311,219.46,0.651
3.019,315.343,219.819,0.653
3.023,316.377,220.178,0.654
3.028,317.413,220.536,0.655
3.033,318.472,220.902,0.656
3.038,319.511,221.259,0.657
3.042,320.552,221.617,0.658
3.047,321.595,221.974,0.659
3.052,322.639,222.33,0.66
3.056,323.685,222.687,0.661
3.061,324.754,223.05,0.662
3.066,325.804,223.406,0.663
3.071,326.854,223.761,0.665
3.075,327.907,224.116,0.666
3.08,328.961,224.47,0.667
3.085,330.017,224.825,0.668
3.089,331.097,225.186,0.669
3.094,332.156,225.539,0.67
3.099,333.217,225.893,0.671
3.104,334.28,226.245,0.672
3.108,335.344,226.598,0.673
3.113,336.432,226.958,0.674
3.118,337.5,227.309,0.675
3.122,338.569,227.661,0.676
3.127,339.64,228.012,0.677
3.132,340.712,228.362,0.678
3.137,341.809,228.72,0.679
3.141,342.885,229.07,0.681
3.146,343.963,229.42,0.682
3.151,345.042,229.77,0.683
3.156,346.145,230.126,0.684
3.16,347.228,230.475,0.685
3.165,348.312,230.824,0.686
3.17,349.398,231.173,0.687
3.174,350.508,231.528,0.688
3.179,351.597,231.876,0.689
3.184,352.688,232.224,0.69
3.189,353.803,232.579,0.691
3.193,354.897,232.927,0.692
3.198,355.993,233.274,0.693
3.203,357.09,233.621,0.694
3.208,358.212,233.976,0.696
3.212,359.313,234.323,0.697
3.217,360.415,234.669,0.698
3.222,361.542,235.023,0.699
3.226,362.647,235.37,0.7
3.231,363.754,235.716,0.701
3.236,364.887,236.07,0.702
3.241,365.997,236.416,0.703
3.245,367.109,236.762,0.704
3.25,368.246,237.115,0.705
3.255,369.362,237.461,0.706
3.26,370.479,237.807,0.707
3.264,371.621,238.16,0.708
3.269,372.741,238.505,0.709
3.274,373.887,238.858,0.71
3.279,375.01,239.204,0.711
3.283,376.135,239.549,0.712
3.288,377.286,239.902,0.713
3.293,378.414,240.247,0.714
3.298,379.568,240.599,0.715
3.302,380.7,240.944,0.716
3.307,381.833,241.289,0.718
3.312,382.992,241.641,0.719
3.316,384.129,241.986,0.72
3.321,385.291,242.338,0.721
3.326,386.431,242.682,0.722
3.331,387.572,243.027,0.723
3.335,388.74,243.379,0.724
3.34,389.884,243.723,0.725
3.345,391.055,244.075,0.726
3.35,392.203,244.419,0.727
3.354,393.377,244.77,0.728
3.359,394.528,245.114,0.729
3.364,395.706,245.465,0.73
3.369,396.86,245.808,0.731
3.373,398.041,246.159,0.732
3.378,399.199,246.502,0.733
3.383,400.383,246.853,0.734
3.388,401.544,247.196,0.735
3.392,402.731,247.546,0.736
3.397,403.895,247.888,0.737
3.402,405.086,248.238,0.739
3.407,406.254,248.58,0.74
3.411,407.448,248.929,0.741
3.416,408.618,249.271,0.742
3.421,409.816,249.619,0.743
3.426,410.99,249.961,0.744
3.43,412.19,250.309,0.745
